k (h/Mpc),x,omega_b,omega_m,omega_nu,T(k),log10(T(k))
1.006679028200371e-05,9.215128139363714e-05,0.0214,0.13,0.000642,1.0,0.0
1.2673338101217042e-05,0.00011601158987584484,0.0214,0.13,0.000642,0.9999990753260898,-4.015809624336172e-07
1.5954787387881374e-05,0.000146049938557344,0.0214,0.13,0.000642,0.9999973554792592,-1.148502283643252e-06
2.0085887282376947e-05,0.00018386597904081713,0.0214,0.13,0.000642,0.9999948699909612,-2.2279403323420244e-06
2.5286633918217626e-05,0.00023147355337889845,0.0214,0.13,0.000642,0.9999907640869538,-4.011124594550411e-06
3.183398601838048e-05,0.0002914079385069889,0.0214,0.13,0.000642,0.9999842873684706,-6.82396278076201e-06
4.007661395723941e-05,0.00036686085898500037,0.0214,0.13,0.000642,0.9999740200610251,-1.1283090704624013e-05
5.045346772943349e-05,0.00046185045796885346,0.0214,0.13,0.000642,0.9999577593202448,-1.834528159084603e-05
6.351715263772079e-05,0.0005814352779857636,0.0214,0.13,0.000642,0.999932060128099,-2.9506913827146693e-05
7.996335754043563e-05,0.0007319836467698836,0.0214,0.13,0.000642,0.9998914512713761,-4.714467265239298e-05
0.00010066790282003716,0.0009215128139363721,0.0214,0.13,0.000642,0.9998273929037065,-7.496877971545476e-05
0.0001267333810121705,0.0011601158987584491,0.0214,0.13,0.000642,0.999726623579838,-0.00011874210214384203
0.00015954787387881386,0.001460499385573441,0.0214,0.13,0.000642,0.999568772375648,-0.0001873201694195665
0.0002008588728237696,0.0018386597904081726,0.0214,0.13,0.000642,0.999323135640887,-0.00029405798607545975
0.0002528663391821764,0.0023147355337889857,0.0214,0.13,0.000642,0.9989446548224566,-0.00045857260588825024
0.00031833986018380505,0.002914079385069891,0.0214,0.13,0.000642,0.9983699726965911,-0.00070848944879368
0.00040076613957239443,0.0036686085898500064,0.0214,0.13,0.000642,0.9975150034601933,-0.0010805634397417713
0.0005045346772943354,0.004618504579688538,0.0214,0.13,0.000642,0.9962755941911805,-0.001620508483439322
0.0006351715263772084,0.005814352779857641,0.0214,0.13,0.000642,0.9945267935077323,-0.0023835120711581037
0.0007996335754043569,0.007319836467698841,0.0214,0.13,0.000642,0.9921029281144569,-0.003443268578433527
0.0010066790282003723,0.009215128139363727,0.0214,0.13,0.000642,0.9887446492685332,-0.004915853733900835
0.0012673338101217057,0.011601158987584497,0.0214,0.13,0.000642,0.984075418038397,-0.006971616626803478
0.0015954787387881394,0.014604993855734417,0.0214,0.13,0.000642,0.9776459779808849,-0.009818382066905466
0.002008588728237697,0.018386597904081734,0.0214,0.13,0.000642,0.9689295264087034,-0.013707809538340634
0.0025286633918217656,0.023147355337889874,0.0214,0.13,0.000642,0.95727568952704,-0.01896297006240361
0.003183398601838052,0.029140793850698926,0.0214,0.13,0.000642,0.9419368438608274,-0.025978215341141416
0.004007661395723946,0.03668608589850008,0.0214,0.13,0.000642,0.9220836104148966,-0.035229697280985156
0.005045346772943356,0.046185045796885406,0.0214,0.13,0.000642,0.8968198828083618,-0.04729477184680857
0.006351715263772087,0.05814352779857643,0.0214,0.13,0.000642,0.8652228208153977,-0.06287203428207389
0.007996335754043573,0.07319836467698845,0.0214,0.13,0.000642,0.826361181648275,-0.08283009201107763
0.010066790282003727,0.0921512813936373,0.0214,0.13,0.000642,0.7792733529290953,-0.10831017410563064
0.012673338101217064,0.11601158987584503,0.0214,0.13,0.000642,0.7230427269707336,-0.1408360380590831
0.015954787387862965,0.1460499385571755,0.0214,0.13,0.000642,0.6569214266979035,-0.18248657258968526
0.02008588716045542,0.1838659779247489,0.0214,0.13,0.000642,0.580807364877094,-0.23596788523977674
0.025286534432213938,0.23147264268517545,0.0214,0.13,0.000642,0.49643382505832595,-0.30413863503851957
0.03181941477677484,0.291274553530463,0.0214,0.13,0.000642,0.4093651574353622,-0.38788912449106655
0.03956649541302458,0.36219123975233497,0.0214,0.13,0.000642,0.33376787615778075,-0.47655546477710214
0.04620084499587586,0.4229219988271531,0.0214,0.13,0.000642,0.2898205692658469,-0.5378707948426079
0.050995001433621005,0.46680765121126494,0.0214,0.13,0.000642,0.2663015447882768,-0.5746263142554695
0.054931902405705266,0.5028459970131017,0.0214,0.13,0.000642,0.25058071541401983,-0.6010523551756446
0.05843920005878389,0.5349517590192773,0.0214,0.13,0.000642,0.23842632230856198,-0.6226458000966123
0.06170614111069176,0.5648572994882166,0.0214,0.13,0.000642,0.22808198409123823,-0.6419090177429297
0.06483231100354331,0.5934742224011214,0.0214,0.13,0.000642,0.21868134676462128,-0.6601882601388013
0.06787717431191534,0.6213468657834472,0.0214,0.13,0.000642,0.2097522575141054,-0.6782933562649702
0.07087966939881436,0.6488316709581878,0.0214,0.13,0.000642,0.20102942326707385,-0.6967403732892402
0.07386717087357321,0.6761792247814321,0.0214,0.13,0.000642,0.19237541709887565,-0.7158504255436033
0.07686006059357721,0.7035761025391077,0.0214,0.13,0.000642,0.1837532333757523,-0.7357650102035368
0.07987426047073556,0.7311680532280218,0.0214,0.13,0.000642,0.17519088224298274,-0.756488500306073
0.08292272989287283,0.7590737069338974,0.0214,0.13,0.000642,0.16675706085071207,-0.7779157680646066
0.08601639814832454,0.787393110235299,0.0214,0.13,0.000642,0.15856793783265893,-0.7997846217473334
0.08916477008730458,0.8162132704207592,0.0214,0.13,0.000642,0.15074451020970547,-0.8217584949692017
0.0923763334598229,0.8456118842553496,0.0214,0.13,0.000642,0.1434118689887734,-0.8434149042956851
0.09565884086523178,0.8756599189435544,0.0214,0.13,0.000642,0.13667367776584127,-0.8643151189493126
0.09901950958530263,0.9064234413989365,0.0214,0.13,0.000642,0.1306093266589829,-0.8840258094935168
0.10246516595858216,0.9379649398453173,0.0214,0.13,0.000642,0.12523999369571603,-0.9022569629164751
0.10600235126930041,0.9703442931226122,0.0214,0.13,0.000642,0.12054174367843498,-0.9188625306012629
0.10963740028341014,1.0036194896048236,0.0214,0.13,0.000642,0.11642353598571081,-0.9339592145704498
0.11337649993856087,1.0378471644473817,0.0214,0.13,0.000642,0.11274812352090358,-0.9478906773994347
0.1172257333891422,1.07308300277496,0.0214,0.13,0.000642,0.10933743298486553,-0.9612311266544015
0.12119111311269215,1.1093820427371537,0.0214,0.13,0.000642,0.10599337247449918,-0.9747212893365366
0.1252786058007182,1.1467989033587649,0.0214,0.13,0.000642,0.10254283617496113,-0.989094674821295
0.129494151104257,1.18538795613644,0.0214,0.13,0.000642,0.09884239493490003,-1.0050567402589232
0.13384367586966128,1.2252034553528979,0.0214,0.13,0.000642,0.09483772621892546,-1.0230188669925782
0.138333105211158,1.2662996394349975,0.0214,0.13,0.000642,0.09055087305630079,-1.0431073580312487
0.1429683715764004,1.3087308139396971,0.0214,0.13,0.000642,0.08609929164068438,-1.065000421575468
0.1477554228377002,1.3525514256211,0.0214,0.13,0.000642,0.08166540114866588,-1.0879619002948393
0.15270023036289732,1.397816136311101,0.0214,0.13,0.000642,0.07745753643923517,-1.110936319999823
0.1578087979705047,1.4445799048946806,0.0214,0.13,0.000642,0.07366193294798337,-1.1327568890973327
0.1630871726430319,1.4928980853795417,0.0214,0.13,0.000642,0.07038577841894153,-1.1525150820241903
0.16854145785284658,1.5428265488808934,0.0214,0.13,0.000642,0.06762532882194099,-1.1698906101632698
0.1741778303419522,1.5944218372233407,0.0214,0.13,0.000642,0.06526062632448865,-1.1853487624824985
0.18000256118841854,1.647741355782744,0.0214,0.13,0.000642,0.06309653508335554,-1.1999944891789358
0.18602204198791863,1.7028436131517055,0.0214,0.13,0.000642,0.06089946010672308,-1.2153865575101512
0.19224281698106754,1.759788515232855,0.0214,0.13,0.000642,0.058486233634266034,-1.2329463452039853
0.198671621970304,1.8186377214835319,0.0214,0.13,0.000642,0.055807405535810393,-1.253308167192567
0.20531543090029913,1.8794550713123077,0.0214,0.13,0.000642,0.05296951408387277,-1.2759740110489344
0.21218151103182986,1.9423070891399814,0.0214,0.13,0.000642,0.05016840985895949,-1.2995696641790198
0.2192774877314568,2.0072635774835392,0.0214,0.13,0.000642,0.04760079751962952,-1.322385770904028
0.22661142004135465,2.0743983087215048,0.0214,0.13,0.000642,0.04539225618822868,-1.343018230437453
0.2341918884012424,2.1437898280994707,0.0214,0.13,0.000642,0.04353401948451762,-1.3611712326965788
0.2420280961871049,2.2155223832143762,0.0214,0.13,0.000642,0.0418796645347683,-1.3779968057726246
0.250129987133572,2.2896869988976034,0.0214,0.13,0.000642,0.040229164737353926,-1.3954589844241132
0.2585083812493393,2.366382721383161,0.0214,0.13,0.000642,0.03844738300949756,-1.4151332158941237
0.2671751325582096,2.445718062267348,0.0214,0.13,0.000642,0.03653521735563061,-1.4372883046025962
0.27614331295615413,2.5278126815341544,0.0214,0.13,0.000642,0.034625749209570796,-1.460600820842666
0.28542742774097674,2.612799360511312,0.0214,0.13,0.000642,0.03288615771799989,-1.4829868647158158
0.2950436700483377,2.7008263309746954,0.0214,0.13,0.000642,0.031381084070523486,-1.5033320576351823
0.3050102236611085,2.7920600470616477,0.0214,0.13,0.000642,0.030037884935727257,-1.5223306506652452
0.31534762665615407,2.8866885140893985,0.0214,0.13,0.000642,0.028718057745407886,-1.5418449355639725
0.3260792124154309,2.9849253255655417,0.0214,0.13,0.000642,0.027332943899439653,-1.5633135900260413
0.33723165010068973,3.0870146106871874,0.0214,0.13,0.000642,0.025923304281136476,-1.5863096424772494
0.34883561443541417,3.193237165517055,0.0214,0.13,0.000642,0.024591256233900457,-1.6092192849450784
0.36092662555730787,3.3039181409833933,0.0214,0.13,0.000642,0.02339739055967691,-1.6308325754413813
0.3735461153454591,3.419436804026465,0.0214,0.13,0.000642,0.022285359854840366,-1.6519803487122158
0.38674279941393613,3.5402390968119963,0.0214,0.13,0.000642,0.021174742119544454,-1.6741818700995372
0.4005744677823961,3.6668540285091455,0.0214,0.13,0.000642,0.02005188627336573,-1.6978447672042947
0.4151103584447911,3.799915402910887,0.0214,0.13,0.000642,0.01897609347704623,-1.7217931889574118
0.4304343573330296,3.940191110864224,0.0214,0.13,0.000642,0.017973370392020373,-1.7453704757343114
0.4466493939160524,4.088623367533113,0.0214,0.13,0.000642,0.01700774695896547,-1.7693532142002757
0.4638836065778357,4.2463851501971375,0.0214,0.13,0.000642,0.01604225005619815,-1.7947347184422289
0.4822991960160135,4.414961242159732,0.0214,0.13,0.000642,0.015100065851517108,-1.8210211587407283
0.5021054825989881,4.5962677596436174,0.0214,0.13,0.000642,0.014199635752522408,-1.8477227959478233
0.5235787621109341,4.792833911050091,0.0214,0.13,0.000642,0.01330841861029766,-1.875873547051555
0.5470935861657876,5.008088337505607,0.0214,0.13,0.000642,0.012423827551032442,-1.9057445854632389
0.5731741139616207,5.246829186225267,0.0214,0.13,0.000642,0.011554066694990837,-1.9372651298547678
0.6025825931486831,5.516034063351853,0.0214,0.13,0.000642,0.01067833017001519,-1.9714966550459256
0.6364807654212455,5.826337538870082,0.0214,0.13,0.000642,0.00979358789237353,-2.009058174754565
0.6767447035402441,6.194913161057506,0.0214,0.13,0.000642,0.008881961113196878,-2.0514911325765497
0.7266277620203916,6.651542099379283,0.0214,0.13,0.000642,0.0079247180776568,-2.101016178888862
0.7922696863969284,7.252427513199396,0.0214,0.13,0.000642,0.006889425090460275,-2.1618170176363614
0.8862656355624695,8.112865340825593,0.0214,0.13,0.000642,0.005734260907941693,-2.2415225506114544
1.0344471814115015,9.469317491546304,0.0214,0.13,0.000642,0.0044394073192871465,-2.3526750062692194
1.271104446284967,11.635675347256248,0.0214,0.13,0.000642,0.003151050695247667,-2.5015446096824863
1.5971988334625113,14.620739582418038,0.0214,0.13,0.000642,0.0021517789288794773,-2.6672023495946613
1.0072880220294686e-05,9.202675248770908e-05,0.0214,0.13,0.000856,1.0,0.0
1.268100487928781e-05,0.00011585481727166907,0.0214,0.13,0.000856,0.9999990753260898,-4.015809624336172e-07
1.596443928962125e-05,0.00014585257354207397,0.0214,0.13,0.000856,0.9999973554792592,-1.148502283643252e-06
2.0098038306749414e-05,0.00018361751120769454,0.0214,0.13,0.000856,0.9999948699909612,-2.2279403323420244e-06
2.5301931151579454e-05,0.000231160750909767,0.0214,0.13,0.000856,0.9999907640869538,-4.011124594550411e-06
3.1853244094189836e-05,0.00029101414352972736,0.0214,0.13,0.000856,0.9999842873684706,-6.82396278076201e-06
4.0100858438258065e-05,0.0003663651004810889,0.0214,0.13,0.000856,0.9999740200610251,-1.1283090704624013e-05
5.048398972268364e-05,0.0004612263349901663,0.0214,0.13,0.000856,0.9999577593202448,-1.834528159084603e-05
6.3555577550642e-05,0.0005806495537078096,0.0214,0.13,0.000856,0.999932060128099,-2.9506913827146693e-05
8.001173163975813e-05,0.0007309944785097037,0.0214,0.13,0.000856,0.9998914512713761,-4.714467265239298e-05
0.0001007288022029469,0.0009202675248770912,0.0214,0.13,0.000856,0.9998273929037065,-7.496877971545476e-05
0.00012681004879287814,0.0011585481727166911,0.0214,0.13,0.000856,0.999726623579838,-0.00011874210214384203
0.00015964439289621257,0.0014585257354207406,0.0214,0.13,0.000856,0.999568772375648,-0.0001873201694195665
0.00020098038306749425,0.0018361751120769465,0.0214,0.13,0.000856,0.999323135640887,-0.00029405798607545975
0.00025301931151579466,0.002311607509097671,0.0214,0.13,0.000856,0.9989446548224566,-0.00045857260588825024
0.00031853244094189845,0.002910141435297274,0.0214,0.13,0.000856,0.9983699726965911,-0.00070848944879368
0.00040100858438258085,0.003663651004810891,0.0214,0.13,0.000856,0.9975150034601933,-0.0010805634397417713
0.0005048398972268366,0.004612263349901665,0.0214,0.13,0.000856,0.9962755941911805,-0.001620508483439322
0.0006355557755064205,0.0058064955370781,0.0214,0.13,0.000856,0.9945267935077323,-0.0023835120711581037
0.0008001173163975818,0.007309944785097042,0.0214,0.13,0.000856,0.9921029281144569,-0.003443268578433527
0.0010072880220294697,0.00920267524877092,0.0214,0.13,0.000856,0.9887446492685332,-0.004915853733900835
0.0012681004879287823,0.01158548172716692,0.0214,0.13,0.000856,0.984075418038397,-0.006971616626803478
0.0015964439289621267,0.014585257354207414,0.0214,0.13,0.000856,0.9776459779808849,-0.009818382066905466
0.002009803830674944,0.018361751120769477,0.0214,0.13,0.000856,0.9689295264087034,-0.013707809538340634
0.0025301931151579487,0.02311607509097673,0.0214,0.13,0.000856,0.95727568952704,-0.01896297006240361
0.0031853244094189872,0.029101414352972768,0.0214,0.13,0.000856,0.9419368438608274,-0.025978215341141416
0.004010085843825811,0.03663651004810893,0.0214,0.13,0.000856,0.9220836104148966,-0.035229697280985156
0.005048398972268371,0.04612263349901669,0.0214,0.13,0.000856,0.8968198828083618,-0.04729477184680857
0.0063555577550642095,0.05806495537078104,0.0214,0.13,0.000856,0.8652228208153977,-0.06287203428207389
0.008001173163975823,0.07309944785097046,0.0214,0.13,0.000856,0.826361181648275,-0.08283009201107763
0.010072880220294702,0.09202675248770924,0.0214,0.13,0.000856,0.7792733529290953,-0.10831017410563064
0.012681004879287831,0.11585481727166927,0.0214,0.13,0.000856,0.7230427269707336,-0.1408360380590831
0.01596443928960238,0.1458525735419016,0.0214,0.13,0.000856,0.6569214266979035,-0.18248657258968526
0.020098038182493953,0.1836175100724853,0.0214,0.13,0.000856,0.580807364877094,-0.23596788523977674
0.025301830234120658,0.23115982891865824,0.0214,0.13,0.000856,0.49643382505832595,-0.30413863503851957
0.03183851936658002,0.29087961707517196,0.0214,0.13,0.000856,0.4093651574353622,-0.38788912449106655
0.039587115156531474,0.3616714949982776,0.0214,0.13,0.000856,0.33376787615778075,-0.47655546477710214
0.04621607509718158,0.4222342776748792,0.0214,0.13,0.000856,0.2898205692658469,-0.5378707948426079
0.05100737523377323,0.46600803275995134,0.0214,0.13,0.000856,0.2663015447882768,-0.5746263142554695
0.05494299809910139,0.5019642422443849,0.0214,0.13,0.000856,0.25058071541401983,-0.6010523551756446
0.058449659380295886,0.5340014195685562,0.0214,0.13,0.000856,0.23842632230856198,-0.6226458000966123
0.06171627825918099,0.5638455476098249,0.0214,0.13,0.000856,0.22808198409123823,-0.6419090177429297
0.06484230424496927,0.5924052061556175,0.0214,0.13,0.000856,0.21868134676462128,-0.6601882601388013
0.06788713628502671,0.620223069407129,0.0214,0.13,0.000856,0.2097522575141054,-0.6782933562649702
0.07088967740755169,0.6476545589785091,0.0214,0.13,0.000856,0.20102942326707385,-0.6967403732892402
0.07387728163031311,0.674949583671184,0.0214,0.13,0.000856,0.19237541709887565,-0.7158504255436033
0.07687031808848126,0.7022942377620346,0.0214,0.13,0.000856,0.1837532333757523,-0.7357650102035368
0.07988470048430955,0.7298339102864124,0.0214,0.13,0.000856,0.17519088224298274,-0.756488500306073
0.08293338273567619,0.7576869494196407,0.0214,0.13,0.000856,0.16675706085071207,-0.7779157680646066
0.08602729040333411,0.7859531720813305,0.0214,0.13,0.000856,0.15856793783265893,-0.7997846217473334
0.08917592576122632,0.8147193919129726,0.0214,0.13,0.000856,0.15074451020970547,-0.8217584949692017
0.0923877747684464,0.8440631374108902,0.0214,0.13,0.000856,0.1434118689887734,-0.8434149042956851
0.09567058878352253,0.8740552256936351,0.0214,0.13,0.000856,0.13667367776584127,-0.8643151189493126
0.09903158424121299,0.9047615867674041,0.0214,0.13,0.000856,0.1306093266589829,-0.8840258094935168
0.10247758691999555,0.9362445815669818,0.0214,0.13,0.000856,0.12523999369571603,-0.9022569629164751
0.10601513775599443,0.9685639686814285,0.0214,0.13,0.000856,0.12054174367843498,-0.9188625306012629
0.10965057132520316,1.001777621374828,0.0214,0.13,0.000856,0.11642353598571081,-0.9339592145704498
0.11339007449407865,1.0359420634234637,0.0214,0.13,0.000856,0.11274812352090358,-0.9478906773994347
0.11723973043532807,1.0711128712480638,0.0214,0.13,0.000856,0.10933743298486553,-0.9612311266544015
0.12120555171237535,1.1073449761765033,0.0214,0.13,0.000856,0.10599337247449918,-0.9747212893365366
0.12529350515370719,1.1446928916980996,0.0214,0.13,0.000856,0.10254283617496113,-0.989094674821295
0.1295095305862031,1.1832108846130236,0.0214,0.13,0.000856,0.09884239493490003,-1.0050567402589232
0.13385955506213573,1.2229531050114726,0.0214,0.13,0.000856,0.09483772621892546,-1.0230188669925782
0.1383495039258624,1.2639736873799736,0.0214,0.13,0.000856,0.09055087305630079,-1.0431073580312487
0.14298530987610064,1.30632683339516,0.0214,0.13,0.000856,0.08609929164068438,-1.065000421575468
0.1477729210562709,1.3500668858378793,0.0214,0.13,0.000856,0.08166540114866588,-1.0879619002948393
0.15271830912674886,1.3952484023420266,0.0214,0.13,0.000856,0.07745753643923517,-1.110936319999823
0.15782747822360338,1.441926237242393,0.0214,0.13,0.000856,0.07366193294798337,-1.1327568890973327
0.16310647567769773,1.4901556395053512,0.0214,0.13,0.000856,0.07038577841894153,-1.1525150820241903
0.1685614053485071,1.5399923745478286,0.0214,0.13,0.000856,0.06762532882194099,-1.1698906101632698
0.1741984444140358,1.5914928776315216,0.0214,0.13,0.000856,0.06526062632448865,-1.1853487624824985
0.1800238644495855,1.6447144464404466,0.0214,0.13,0.000856,0.06309653508335554,-1.1999944891789358
0.18604405762385628,1.6997154804109076,0.0214,0.13,0.000856,0.06089946010672308,-1.2153865575101512
0.1922655688431229,1.7565557744036224,0.0214,0.13,0.000856,0.058486233634266034,-1.2329463452039853
0.19869513468730962,1.815296874427255,0.0214,0.13,0.000856,0.055807405535810393,-1.253308167192567
0.20533973001208278,1.8760025033993821,0.0214,0.13,0.000856,0.05296951408387277,-1.2759740110489344
0.21220662314711,1.9387390654428265,0.0214,0.13,0.000856,0.05016840985895949,-1.2995696641790198
0.21930344071314822,2.003576238060483,0.0214,0.13,0.000856,0.04760079751962952,-1.322385770904028
0.2266382432227721,2.0705876628304716,0.0214,0.13,0.000856,0.04539225618822868,-1.343018230437453
0.23421961283734966,2.1398517471618703,0.0214,0.13,0.000856,0.04353401948451762,-1.3611712326965788
0.24205675494586026,2.2114525923280612,0.0214,0.13,0.000856,0.0418796645347683,-1.3779968057726246
0.25015961563364536,2.2854810666719536,0.0214,0.13,0.000856,0.040229164737353926,-1.3954589844241132
0.25853901765210935,2.362036047837573,0.0214,0.13,0.000856,0.03844738300949756,-1.4151332158941237
