k (h/Mpc),x,omega_b,omega_m,T(k),log10(T(k))
1.0050371497379905e-05,9.254485725027536e-05,0.0214,0.13,1.0,0.0
1.265266807602336e-05,0.00011650707252323536,0.0214,0.13,0.999998802763004,-5.199537321414459e-07
1.592876536790262e-05,0.00014667371425324696,0.0214,0.13,0.9999968630586439,-1.3623584578369361e-06
2.0053127500159477e-05,0.00018465126611564897,0.0214,0.13,0.999993948922756,-2.6279574076565147e-06
2.524539179589921e-05,0.00023246217123295773,0.0214,0.13,0.999989188527173,-4.6953883720903536e-06
3.1782065262557506e-05,0.0002926525346460175,0.0214,0.13,0.9999816401756217,-7.973643613761426e-06
4.0011249598334304e-05,0.0003684277126918444,0.0214,0.13,0.9999696736400849,-1.317077047909802e-05
5.0371178876982226e-05,0.0004638230099169634,0.0214,0.13,0.9999507597778511,-2.138528327933534e-05
6.341355711026252e-05,0.0005839185737593234,0.0214,0.13,0.9999208442721501,-3.437825645214897e-05
7.983293849837017e-05,0.0007351099309242189,0.0214,0.13,0.9998735777467463,-5.490795784484958e-05
0.0001005037149737991,0.0009254485725027541,0.0214,0.13,0.9997990495526604,-8.728044023106305e-05
0.00012652668076023365,0.001165070725232354,0.0214,0.13,0.9996818276709999,-0.0001382024740466548
0.00015928765367902628,0.0014667371425324703,0.0214,0.13,0.9994982579999625,-0.00021795846598735529
0.00020053127500159487,0.0018465126611564905,0.0214,0.13,0.9992127185222724,-0.0003420466626567418
0.0002524539179589922,0.0023246217123295784,0.0214,0.13,0.9987730913784649,-0.0005331667845171296
0.0003178206526255752,0.0029265253464601767,0.0214,0.13,0.9981063010204649,-0.0008232027125064046
0.0004001124959833432,0.0036842771269184455,0.0214,0.13,0.997116051948506,-0.001254292252309248
0.0005037117887698225,0.004638230099169636,0.0214,0.13,0.9956842707063448,-0.0018783535721411822
0.0006341355711026253,0.005839185737593235,0.0214,0.13,0.9936713665224537,-0.002757224560959542
0.0007983293849837021,0.0073510993092421924,0.0214,0.13,0.9908938963492202,-0.00397284672265751
0.0010050371497379914,0.009254485725027545,0.0214,0.13,0.9870629599409518,-0.005655144916103466
0.0012652668076023371,0.011650707252323545,0.0214,0.13,0.9817597270038616,-0.007994787166609126
0.0015928765367902637,0.014667371425324711,0.0214,0.13,0.9744987891545401,-0.011218696170606408
0.0020053127500159495,0.01846512661156491,0.0214,0.13,0.9647020077872609,-0.015606817598859924
0.0025245391795899234,0.023246217123295793,0.0214,0.13,0.9516811236457483,-0.02150854472425695
0.003178206526255753,0.02926525346460178,0.0214,0.13,0.9346583945379214,-0.02934708910096724
0.004001124959833434,0.03684277126918448,0.0214,0.13,0.9127929712500715,-0.03962771276059254
0.005037117887698227,0.04638230099169638,0.0214,0.13,0.8852042083679174,-0.05295653005135464
0.006341355711026257,0.05839185737593238,0.0214,0.13,0.851028737515779,-0.07005577442328202
0.007983293849837024,0.07351099309242196,0.0214,0.13,0.8094315883526301,-0.09181985111871867
0.01005037149737992,0.0925448572502755,0.0214,0.13,0.7595945328634771,-0.11941816973250334
0.012652668076023376,0.1165070725232355,0.0214,0.13,0.7007856107413325,-0.15441482413420346
0.015928765367885428,0.14667371425308864,0.0214,0.13,0.6324688039906827,-0.19896089084594165
0.02005312738452417,0.18465126505086712,0.0214,0.13,0.554755463010224,-0.2558984123163004
0.025245296198646818,0.2324612909635987,0.0214,0.13,0.4696028720833962,-0.32826925561445347
0.03176791385172902,0.29252222699566316,0.0214,0.13,0.38268579793773744,-0.41715765481684014
0.03951110889798135,0.3638223655431064,0.0214,0.13,0.3076817292466138,-0.5118982922574681
0.04616085756068104,0.42505393702284566,0.0214,0.13,0.264180133466551,-0.5780998447466861
0.05096328396347044,0.46927517461759155,0.0214,0.13,0.24166624576713827,-0.6167840045397107
0.05490398307232932,0.5055615384192387,0.0214,0.13,0.2269721094733515,-0.6440275060051147
0.058413257354210275,0.5378752979209049,0.0214,0.13,0.21575078509583392,-0.6660476152550793
0.061681282246121655,0.5679676081594995,0.0214,0.13,0.2062301554294286,-0.6856478309096025
0.0648080294852235,0.5967590192009531,0.0214,0.13,0.19756006343354165,-0.7043008430650921
0.06785315066971015,0.6247988091133531,0.0214,0.13,0.18928601368510858,-0.722881474804212
0.07085568520194074,0.6524464567397859,0.0214,0.13,0.18114921949813947,-0.7419635328322122
0.07384306681494839,0.6799545747232816,0.0214,0.13,0.1730376573701788,-0.7618593731233531
0.07683571407957032,0.7075111793698925,0.0214,0.13,0.1649217747260532,-0.7827220003951472
0.0798495727490475,0.7352631008199585,0.0214,0.13,0.1568465064944871,-0.804525150074705
0.08289761822514176,0.7633298179110659,0.0214,0.13,0.14889773469733372,-0.8271119094736903
0.0859907908249912,0.7918120702117053,0.0214,0.13,0.14119286679713824,-0.8501872437154798
0.0891386031294603,0.8207974505475165,0.0214,0.13,0.13386123035519273,-0.8733451875947675
0.09234954836718029,0.850364165443649,0.0214,0.13,0.12703117904330088,-0.8960896709766745
0.09563138303762429,0.880583637547185,0.0214,0.13,0.12080826002052007,-0.9179033706925945
0.09899132719223577,0.9115223498364251,0.0214,0.13,0.1152648147279499,-0.9383032434557897
0.10243620911555781,0.9432431778596484,0.0214,0.13,0.11042200658204,-0.9569443651510565
0.10597257142961584,0.9758063667552104,0.0214,0.13,0.1062388137780882,-0.9737167871148631
0.10960674978473593,1.009270255844714,0.0214,0.13,0.10262313557841635,-0.9887547199125606
0.1133449316628371,1.0436918200997891,0.0214,0.13,0.09942741323725553,-1.0024938593019554
0.11719320050668165,1.0791270764887813,0.0214,0.13,0.09646350747147805,-1.0156369509169931
0.12115756888943958,1.115631389405521,0.0214,0.13,0.09353902848331741,-1.029007145080983
0.12524400345293357,1.1532597003032556,0.0214,0.13,0.09047472216654828,-1.0434727418668506
0.12945844368841913,1.1920667006300105,0.0214,0.13,0.08714284278170711,-1.059768276575262
0.13380681619772622,1.2321069631466501,0.0214,0.13,0.0834861406195128,-1.078385614960068
0.1382950457828396,1.2734350440408804,0.0214,0.13,0.07954911241687365,-1.0993646617069595
0.14292906452113216,1.3161055664929295,0.0214,0.13,0.07545461453450919,-1.122314195178095
0.1477148198595587,1.3601732952077228,0.0214,0.13,0.07139017122703145,-1.1463615763987984
0.15265828268214635,1.4056932107011635,0.0214,0.13,0.0675649732341323,-1.170278390944586
0.15776545625563865,1.4527205916725474,0.0214,0.13,0.06415778946268136,-1.1927506079517296
0.16304238692731923,1.5013111135112267,0.0214,0.13,0.06126429907019263,-1.2127925309223255
0.1684951774294413,1.5515209708051685,0.0214,0.13,0.05887010881771994,-1.2301051614208593
0.17413000363167155,1.6034070315991855,0.0214,0.13,0.05684109439095892,-1.2453375689680197
0.17995313557428994,1.6570270310708097,0.0214,0.13,0.05497819354746579,-1.2598095341407174
0.1859709636105697,1.712439812252023,0.0214,0.13,0.053061446835069866,-1.2752209122142193
0.19219003048894498,1.7697056214451656,0.0214,0.13,0.050914191082723756,-1.2931611518492614
0.1986170702185277,1.8288864661006234,0.0214,0.13,0.048504384700116074,-1.3142190002638732
0.20525905459162944,1.8900465432010076,0.0214,0.13,0.04594542178043774,-1.3377577572822472
0.21212324829268747,1.9532527467098293,0.0214,0.13,0.04343758692534482,-1.3621343089743618
0.2192172736150986,2.0185752634907788,0.0214,0.13,0.04116460018981139,-1.38547609830668
0.22654918594907522,2.086088268407691,0.0214,0.13,0.03923583355296678,-1.4063171165068105
0.2341275614107163,2.1558707312220653,0.0214,0.13,0.037631793922073,-1.4244450782018683
0.24196159827455524,2.228007350594431,0.0214,0.13,0.036204627428099496,-1.441235917365933
0.25006123427315546,2.3025896341911185,0.0214,0.13,0.034762129311231925,-1.458893629237308
0.25843728236873065,2.3797171488833393,0.0214,0.13,0.03318682973803173,-1.479034232768844
0.2671015883235212,2.459498971671466,0.0214,0.13,0.031493386183427466,-1.5017806413096426
0.27606721435160086,2.5420553807698054,0.0214,0.13,0.02981120659060078,-1.5256204458045015
0.28534865439848667,2.62751983792345,0.0214,0.13,0.028293916065113597,-1.5483069391542374
0.294962088268764,2.7160413284416576,0.0214,0.13,0.026992798976511863,-1.5687520796143595
0.30492568405061243,2.807787145954074,0.0214,0.13,0.025829165524875304,-1.58788962455824
0.31525996127696493,2.902946236436141,0.0214,0.13,0.024678372633608697,-1.6076834823837751
0.32598823131700927,3.001733253379459,0.0214,0.13,0.02346478789258259,-1.6295833671918356
0.3371371370515757,3.1043935271784138,0.0214,0.13,0.022233952332928034,-1.6529833297521637
0.3487373216120977,3.2112092229474927,0.0214,0.13,0.0210806880817185,-1.6761152176902108
0.36082426685573604,3.322507061286704,0.0214,0.13,0.02004899897115326,-1.697907306443166
0.373439357849955,3.4386681201653317,0.0214,0.13,0.019085843017845473,-1.7192886525913489
0.38663125236627327,3.560140445361632,0.0214,0.13,0.018120093322363667,-1.7418395699437967
0.4004576681064675,3.687455507426036,0.0214,0.13,0.017147179525378285,-1.7658073052013845
0.41498775144338607,3.8212500132908476,0.0214,0.13,0.016219898424175132,-1.7899518698510257
0.4303052704870575,3.962295308352279,0.0214,0.13,0.015354430171248577,-1.813766296321166
0.4465130006162526,4.111537758897353,0.0214,0.13,0.01452082487207644,-1.8380087123400684
0.46373887480405995,4.270155384936095,0.0214,0.13,0.013688223132295035,-1.8636529239568278
0.48214481388934877,4.43963917025183,0.0214,0.13,0.012877600360127623,-1.890165056809077
0.501939747281675,4.621912958394797,0.0214,0.13,0.012103491146282086,-1.9170893431645781
0.5233994085216251,4.8195157322433255,0.0214,0.13,0.011337496217213002,-1.9454828448353803
0.5468975127480216,5.035888699337215,0.0214,0.13,0.010579568006383282,-1.9755320654080428
0.5729569238330182,5.275846444134606,0.0214,0.13,0.009834378724351207,-2.0072530709361556
0.6023377854754619,5.546388448208673,0.0214,0.13,0.009085738931069202,-2.0416397463266938
0.636198220632686,5.858178827188637,0.0214,0.13,0.00833043761353457,-2.0793321836891
0.6764076362787574,6.228431273285059,0.0214,0.13,0.007554169101635504,-2.121813297628008
0.7262060868159506,6.686980541583338,0.0214,0.13,0.006741050701033492,-2.1712724064176148
0.7917044904810568,7.290096597431463,0.0214,0.13,0.005864702395595549,-2.2317540212688156
0.8854330983538392,8.153159285026144,0.0214,0.13,0.004890044631272651,-2.310687177067182
1.0331108919989562,9.512991639032746,0.0214,0.13,0.0037977240829393626,-2.4204765913656643
1.2690947594664463,11.68595542786783,0.0214,0.13,0.0027007193465185277,-2.5685205445023684
1.5946031141010462,14.683269927265618,0.0214,0.13,0.0018416550839795325,-2.7347917037541483
1.0250249707206632e-05,8.89264000046845e-05,0.0214,0.13666666666666666,1.0,0.0
1.2904299833638153e-05,0.00011195170474527028,0.0214,0.13666666666666666,0.9999989236135411,-4.674689510641966e-07
1.6245550981978315e-05,0.0001409388459974984,0.0214,0.13666666666666666,0.9999972482893799,-1.1950543823446333e-06
2.0451936959810192e-05,0.00017743149473519544,0.0214,0.13666666666666666,0.999994361164607,-2.4489220000601103e-06
2.5747463159117395e-05,0.00022337301757476054,0.0214,0.13666666666666666,0.9999898389625238,-4.412904926208786e-06
3.241413566024701e-05,0.0002812099681340111,0.0214,0.13666666666666666,0.9999826530357901,-7.533756178200359e-06
4.0806979084028474e-05,0.0003540223749337346,0.0214,0.13666666666666666,0.9999713245020906,-1.2453789068041287e-05
5.1372942947436525e-05,0.00044568776414780103,0.0214,0.13666666666666666,0.99995338694561,-2.0244264133400517e-05
6.467470335517979e-05,0.0005610876520113921,0.0214,0.13666666666666666,0.9999250167121123,-3.2566049134563144e-05
8.142062755408533e-05,0.0007063675033610643,0.0214,0.13666666666666666,0.9998801828942595,-5.2039025505686146e-05
0.0001025024970720664,0.0008892640000468456,0.0214,0.13666666666666666,0.9998094837963887,-8.274801861104737e-05
0.0001290429983363816,0.0011195170474527034,0.0214,0.13666666666666666,0.9996982795757725,-0.0001310552873423255
0.00016245550981978328,0.001409388459974985,0.0214,0.13666666666666666,0.9995241207436174,-0.00020672092610159477
0.00020451936959810203,0.0017743149473519553,0.0214,0.13666666666666666,0.9992531802216509,-0.000324460880700764
0.00025747463159117405,0.0022337301757476063,0.0214,0.13666666666666666,0.998835911595343,-0.0005058516557702139
0.00032414135660247033,0.002812099681340113,0.0214,0.13666666666666666,0.998202809980913,-0.0007812119118047447
0.0004080697908402849,0.0035402237493373477,0.0214,0.13666666666666666,0.9972620028759406,-0.001190727892108535
0.0005137294294743655,0.004456877641478012,0.0214,0.13666666666666666,0.9959004723571327,-0.001784061642449058
0.0006467470335517982,0.005610876520113923,0.0214,0.13666666666666666,0.9939839135238643,-0.00262064409800965
0.0008142062755408535,0.007063675033610644,0.0214,0.13666666666666666,0.9913351660703773,-0.0037794876283646687
0.0010250249707206643,0.008892640000468459,0.0214,0.13666666666666666,0.987675863618907,-0.005385559196062336
0.0012904299833638166,0.01119517047452704,0.0214,0.13666666666666666,0.9826025354442227,-0.007622119574274106
0.0016245550981978333,0.014093884599749857,0.0214,0.13666666666666666,0.9756436525147663,-0.010708776601270497
0.002045193695981021,0.01774314947351956,0.0214,0.13666666666666666,0.9662370801663751,-0.014916300111097033
0.002574746315911742,0.022337301757476072,0.0214,0.13666666666666666,0.9537088010418766,-0.020584209578749433
0.0032414135660247044,0.02812099681340114,0.0214,0.13666666666666666,0.9372913601600132,-0.02812538623002839
0.0040806979084028515,0.0354022374933735,0.0214,0.13666666666666666,0.9161478048131718,-0.03803445467665339
0.005137294294743657,0.04456877641478014,0.0214,0.13666666666666666,0.8893923033848498,-0.05090663316452077
0.006467470335517985,0.05610876520113926,0.0214,0.13666666666666666,0.8561423140815795,-0.06745403779585255
0.00814206275540854,0.07063675033610649,0.0214,0.13666666666666666,0.8155328033840064,-0.08855856553462996
0.010250249707206649,0.08892640000468464,0.0214,0.13666666666666666,0.7667029475764028,-0.11537286710282903
0.012904299833638173,0.11195170474527046,0.0214,0.13666666666666666,0.7088759508437428,-0.149429757168948
0.016245550981954415,0.14093884599729106,0.0214,0.13666666666666666,0.641458798887653,-0.1928312332724951
0.020451936810365792,0.1774314934386853,0.0214,0.13666666666666666,0.5645226731183715,-0.24831861067000854
0.025747346847640427,0.2233720085104722,0.0214,0.13666666666666666,0.47997183361222756,-0.3187842477612885
0.03239774358486491,0.2810677581104533,0.0214,0.13666666666666666,0.3934379410167106,-0.4051237613977044
0.04025255380186478,0.34921243899824855,0.0214,0.13666666666666666,0.31871064612813954,-0.49660342922321815
0.04691113660200547,0.4069792070735004,0.0214,0.13666666666666666,0.2753569702267472,-0.5601039255647575
0.05173379792887489,0.4488183741660633,0.0214,0.13666666666666666,0.25248710718075557,-0.5977607934788264
0.055704937967503185,0.48327013852663264,0.0214,0.13666666666666666,0.23732864404198456,-0.6246498420665543
0.05924784599311847,0.5140067610739023,0.0214,0.13666666666666666,0.2256435353802923,-0.6465771043724371
0.06255071470692809,0.5426609141723086,0.0214,0.13666666666666666,0.21569913948291275,-0.6661515874823787
0.06571294199473686,0.5700949276582146,0.0214,0.13666666666666666,0.2066515880216222,-0.6847612530177544
0.06879403756878355,0.5968250801224716,0.0214,0.13666666666666666,0.19803255019181867,-0.7032634198049055
0.07183304679360404,0.6231901109913596,0.0214,0.13666666666666666,0.18959622370828974,-0.7221703169925956
0.07485746267895824,0.6494285368330674,0.0214,0.13666666666666666,0.1812191793615092,-0.7417958405991737
0.07788778179227493,0.6757181763355258,0.0214,0.13666666666666666,0.1728737981283406,-0.7622708262205596
0.08094003327069708,0.702198090838899,0.0214,0.13666666666666666,0.1645949106879872,-0.7835835974001424
0.08402727614158662,0.7289815743920182,0.0214,0.13666666666666666,0.15646213314031684,-0.8055907530574389
0.08716053276432055,0.7561642518593455,0.0214,0.13666666666666666,0.14858849020719456,-0.8280148300983085
0.09034939572834177,0.7838293440862503,0.0214,0.13666666666666666,0.14109102061197237,-0.850500624961187
0.09360243634316569,0.8120512117683548,0.0214,0.13666666666666666,0.13409375530330758,-0.8725914466112124
0.09692748756867649,0.8408978100232201,0.0214,0.13666666666666666,0.12770163153430897,-0.8938035540927238
0.10033184464962452,0.870432429001948,0.0214,0.13666666666666666,0.12197781144575691,-0.9137191631209469
0.10382241013040006,0.9007149519699253,0.0214,0.13666666666666666,0.11694148526518666,-0.9320313945214954
0.10740580024816988,0.9318027783242038,0.0214,0.13666666666666666,0.11255301168230493,-0.9486428796993828
0.11108842386112598,0.9637515083382822,0.0214,0.13666666666666666,0.10871910531738752,-0.9636941302023504
0.11487654144003816,0.9966154549453861,0.0214,0.13666666666666666,0.1052959282339935,-0.977588422543844
0.11877630934261861,1.0304480278422667,0.0214,0.13666666666666666,0.10210329295699859,-0.9909602511550885
0.12279381309278438,1.0653020222046072,0.0214,0.13666666666666666,0.0989523722352929,-1.0045737897713996
0.1269350924016661,1.1012298357576584,0.0214,0.13666666666666666,0.09566853584251399,-1.0192308726390578
0.1312061600130655,1.1382836322706666,0.0214,0.13666666666666666,0.09213498543511274,-1.0355754284749534
0.1356130160202736,1.1765154657629289,0.0214,0.13666666666666666,0.08829529020913908,-1.0540624616629073
0.14016165901162242,1.2159773771974185,0.0214,0.13666666666666666,0.08419405758797671,-1.0747185598996807
0.1448580952114914,1.2567214737839048,0.0214,0.13666666666666666,0.07995409930265787,-1.0971592647647201
0.14970834665978644,1.2987999999403104,0.0214,0.13666666666666666,0.07575871328560378,-1.120567410162486
0.15471845939411555,1.342265408277463,0.0214,0.13666666666666666,0.07180614721734066,-1.143838374862265
0.15989451254953832,1.3871704385442887,0.0214,0.13666666666666666,0.0682718673187745,-1.1657582185025168
0.16524262926001268,1.4335682122036961,0.0214,0.13666666666666666,0.06524514948159887,-1.1854517695326356
0.1707689902260878,1.4815123501395704,0.0214,0.13666666666666666,0.06270708861779423,-1.2026833623019604
0.17647985080037623,1.531057120882385,0.0214,0.13666666666666666,0.06052460850806141,-1.218068011028543
0.18238156243369105,1.5822576266659145,0.0214,0.13666666666666666,0.05850221843966137,-1.2328276648949867
0.18848059932052658,1.6351700345910347,0.0214,0.13666666666666666,0.05642902132211614,-1.2484974818598593
0.19478359108504145,1.6898518601941135,0.0214,0.13666666666666666,0.05413589814578592,-1.2665146536290048
0.20129736236225612,1.7463623108350734,0.0214,0.13666666666666666,0.05159316779383912,-1.2874078058512908
0.20802898016032906,1.8047626965904777,0.0214,0.13666666666666666,0.04891756438104528,-1.3105351747388816
0.21498580994719954,1.8651169168351611,0.0214,0.13666666666666666,0.04630491023440416,-1.3343729533743436
0.22217558149951006,1.9274920315168602,0.0214,0.13666666666666666,0.04393472514134253,-1.357192086230323
0.229606465696931,1.9919589273880656,0.0214,0.13666666666666666,0.04190540693725334,-1.3777299376180585
0.23728716365707178,2.0585930912990613,0.0214,0.13666666666666666,0.04019450164815076,-1.3958333515718797
0.24522700990496835,2.1274755052484244,0.0214,0.13666666666666666,0.03865503807443357,-1.41279389462189
0.25343609168141823,2.198693681446659,0.0214,0.13666666666666666,0.03709977702285166,-1.430628700574607
0.261925387047685,2.272342860448395,0.0214,0.13666666666666666,0.03541949341212023,-1.450757654605405
0.27070692518142714,2.3485274018053253,0.0214,0.13666666666666666,0.033630473136180665,-1.4732670226946707
0.2797939732351621,2.4273624051633496,0.0214,0.13666666666666666,0.031864233891787,-1.496696518752267
0.28920125541939207,2.5089756109259,0.0214,0.13666666666666666,0.030266988397897855,-1.5190307897220665
0.29894521168249044,2.593509644440345,0.0214,0.13666666666666666,0.028884761033513486,-1.5393312210689334
0.30904430563670243,2.681124687420785,0.0214,0.13666666666666666,0.02763722774636353,-1.5585055226161921
